D:\data\Sietse\Toy_modelV1_1_0_Fixed_Port_Zoom1.son DE_EMBEDDED PPC_Dim_will_be_squared=51.0 read_gap=8.0 read_line=20.0 read_gap2=7.5 O_coupler=12.0 Box_w=250.0
FREQUENCY (GHz) DB[S21]
5,-0.000188411
5.0001,-0.000188422
5.0002,-0.000188435
5.0003,-0.000188447
5.0004,-0.000188459
5.0005,-0.000188471
5.0006,-0.000188484
5.0007,-0.000188496
5.0008,-0.000188508
5.0009,-0.000188521
5.001,-0.000188533
5.0011,-0.000188545
5.0012,-0.000188557
5.0013,-0.00018857
5.0014,-0.000188582
5.0015,-0.000188594
5.0016,-0.000188607
5.0017,-0.000188619
5.0018,-0.000188631
5.0019,-0.000188643
5.002,-0.000188656
5.0021,-0.000188668
5.0022,-0.00018868
5.0023,-0.000188693
5.0024,-0.000188705
5.0025,-0.000188717
5.0026,-0.00018873
5.0027,-0.000188742
5.0028,-0.000188754
5.0029,-0.000188767
5.003,-0.000188779
5.0031,-0.000188791
5.0032,-0.000188803
5.0033,-0.000188816
5.0034,-0.000188828
5.0035,-0.000188841
5.0036,-0.000188853
5.0037,-0.000188865
5.0038,-0.000188878
5.0039,-0.00018889
5.004,-0.000188902
5.0041,-0.000188915
5.0042,-0.000188927
5.0043,-0.000188939
5.0044,-0.000188952
5.0045,-0.000188964
5.0046,-0.000188976
5.0047,-0.000188989
5.0048,-0.000189001
5.0049,-0.000189014
5.005,-0.000189026
5.0051,-0.000189038
5.0052,-0.000189051
5.0053,-0.000189063
5.0054,-0.000189075
5.0055,-0.000189088
5.0056,-0.0001891
5.0057,-0.000189113
5.0058,-0.000189125
5.0059,-0.000189138
5.006,-0.00018915
5.0061,-0.000189162
5.0062,-0.000189175
5.0063,-0.000189187
5.0064,-0.0001892
5.0065,-0.000189212
5.0066,-0.000189224
5.0067,-0.000189237
5.0068,-0.000189249
5.0069,-0.000189262
5.007,-0.000189274
5.0071,-0.000189287
5.0072,-0.000189299
5.0073,-0.000189311
5.0074,-0.000189324
5.0075,-0.000189336
5.0076,-0.000189349
5.0077,-0.000189361
5.0078,-0.000189374
5.0079,-0.000189386
5.008,-0.000189399
5.0081,-0.000189411
5.0082,-0.000189424
5.0083,-0.000189436
5.0084,-0.000189449
5.0085,-0.000189461
5.0086,-0.000189474
5.0087,-0.000189486
5.0088,-0.000189499
5.0089,-0.000189511
5.009,-0.000189524
5.0091,-0.000189536
5.0092,-0.000189549
5.0093,-0.000189561
5.0094,-0.000189574
5.0095,-0.000189586
5.0096,-0.000189599
5.0097,-0.000189611
5.0098,-0.000189624
5.0099,-0.000189636
5.01,-0.000189649
5.0101,-0.000189661
5.0102,-0.000189674
5.0103,-0.000189686
5.0104,-0.000189699
5.0105,-0.000189711
5.0106,-0.000189724
5.0107,-0.000189736
5.0108,-0.000189749
5.0109,-0.000189761
5.011,-0.000189774
5.0111,-0.000189787
5.0112,-0.000189799
5.0113,-0.000189812
5.0114,-0.000189824
5.0115,-0.000189837
5.0116,-0.000189849
5.0117,-0.000189862
5.0118,-0.000189875
5.0119,-0.000189887
5.012,-0.0001899
5.0121,-0.000189912
5.0122,-0.000189925
5.0123,-0.000189937
5.0124,-0.00018995
5.0125,-0.000189963
5.0126,-0.000189975
5.0127,-0.000189988
5.0128,-0.00019
5.0129,-0.000190013
5.013,-0.000190026
5.0131,-0.000190038
5.0132,-0.000190051
5.0133,-0.000190064
5.0134,-0.000190076
5.0135,-0.000190089
5.0136,-0.000190101
5.0137,-0.000190114
5.0138,-0.000190127
5.0139,-0.000190139
5.014,-0.000190152
5.0141,-0.000190165
5.0142,-0.000190177
5.0143,-0.00019019
5.0144,-0.000190203
5.0145,-0.000190215
5.0146,-0.000190228
5.0147,-0.000190241
5.0148,-0.000190253
5.0149,-0.000190266
5.015,-0.000190279
5.0151,-0.000190291
5.0152,-0.000190304
5.0153,-0.000190317
5.0154,-0.000190329
5.0155,-0.000190342
5.0156,-0.000190355
5.0157,-0.000190367
5.0158,-0.00019038
5.0159,-0.000190393
5.016,-0.000190405
5.0161,-0.000190418
5.0162,-0.000190431
5.0163,-0.000190444
5.0164,-0.000190456
5.0165,-0.000190469
5.0166,-0.000190482
5.0167,-0.000190494
5.0168,-0.000190507
5.0169,-0.00019052
5.017,-0.000190533
5.0171,-0.000190545
5.0172,-0.000190558
5.0173,-0.000190571
5.0174,-0.000190584
5.0175,-0.000190596
5.0176,-0.000190609
5.0177,-0.000190622
5.0178,-0.000190635
5.0179,-0.000190647
5.018,-0.00019066
5.0181,-0.000190673
5.0182,-0.000190686
5.0183,-0.000190698
5.0184,-0.000190711
5.0185,-0.000190724
5.0186,-0.000190737
5.0187,-0.000190749
5.0188,-0.000190762
5.0189,-0.000190775
5.019,-0.000190788
5.0191,-0.000190801
5.0192,-0.000190813
5.0193,-0.000190826
5.0194,-0.000190839
5.0195,-0.000190852
5.0196,-0.000190865
5.0197,-0.000190877
5.0198,-0.00019089
5.0199,-0.000190903
5.02,-0.000190916
5.0201,-0.000190929
5.0202,-0.000190942
5.0203,-0.000190954
5.0204,-0.000190967
5.0205,-0.00019098
5.0206,-0.000190993
5.0207,-0.000191006
5.0208,-0.000191019
5.0209,-0.000191031
5.021,-0.000191044
5.0211,-0.000191057
5.0212,-0.00019107
5.0213,-0.000191083
5.0214,-0.000191096
5.0215,-0.000191109
5.0216,-0.000191121
5.0217,-0.000191134
5.0218,-0.000191147
5.0219,-0.00019116
5.022,-0.000191173
5.0221,-0.000191186
5.0222,-0.000191199
5.0223,-0.000191212
5.0224,-0.000191225
5.0225,-0.000191237
5.0226,-0.00019125
5.0227,-0.000191263
5.0228,-0.000191276
5.0229,-0.000191289
5.023,-0.000191302
5.0231,-0.000191315
5.0232,-0.000191328
5.0233,-0.000191341
5.0234,-0.000191354
5.0235,-0.000191367
5.0236,-0.00019138
5.0237,-0.000191392
5.0238,-0.000191405
5.0239,-0.000191418
5.024,-0.000191431
5.0241,-0.000191444
5.0242,-0.000191457
5.0243,-0.00019147
5.0244,-0.000191483
5.0245,-0.000191496
5.0246,-0.000191509
5.0247,-0.000191522
5.0248,-0.000191535
5.0249,-0.000191548
5.025,-0.000191561
5.0251,-0.000191574
5.0252,-0.000191587
5.0253,-0.0001916
5.0254,-0.000191613
5.0255,-0.000191626
5.0256,-0.000191639
5.0257,-0.000191652
5.0258,-0.000191665
5.0259,-0.000191678
5.026,-0.000191691
5.0261,-0.000191704
5.0262,-0.000191717
5.0263,-0.00019173
5.0264,-0.000191743
5.0265,-0.000191756
5.0266,-0.000191769
5.0267,-0.000191782
5.0268,-0.000191795
5.0269,-0.000191808
5.027,-0.000191821
5.0271,-0.000191834
5.0272,-0.000191847
5.0273,-0.00019186
5.0274,-0.000191873
5.0275,-0.000191887
5.0276,-0.0001919
5.0277,-0.000191913
5.0278,-0.000191926
5.0279,-0.000191939
5.028,-0.000191952
5.0281,-0.000191965
5.0282,-0.000191978
5.0283,-0.000191991
5.0284,-0.000192004
5.0285,-0.000192017
5.0286,-0.00019203
5.0287,-0.000192044
5.0288,-0.000192057
5.0289,-0.00019207
5.029,-0.000192083
5.0291,-0.000192096
5.0292,-0.000192109
5.0293,-0.000192122
5.0294,-0.000192135
5.0295,-0.000192148
5.0296,-0.000192162
5.0297,-0.000192175
5.0298,-0.000192188
5.0299,-0.000192201
5.03,-0.000192214
5.0301,-0.000192227
5.0302,-0.00019224
5.0303,-0.000192254
5.0304,-0.000192267
5.0305,-0.00019228
5.0306,-0.000192293
5.0307,-0.000192306
5.0308,-0.000192319
5.0309,-0.000192333
5.031,-0.000192346
5.0311,-0.000192359
5.0312,-0.000192372
5.0313,-0.000192385
5.0314,-0.000192398
5.0315,-0.000192412
5.0316,-0.000192425
5.0317,-0.000192438
5.0318,-0.000192451
5.0319,-0.000192464
5.032,-0.000192478
5.0321,-0.000192491
5.0322,-0.000192504
5.0323,-0.000192517
5.0324,-0.000192531
5.0325,-0.000192544
5.0326,-0.000192557
5.0327,-0.00019257
5.0328,-0.000192583
5.0329,-0.000192597
5.033,-0.00019261
5.0331,-0.000192623
5.0332,-0.000192636
5.0333,-0.00019265
5.0334,-0.000192663
5.0335,-0.000192676
5.0336,-0.000192689
5.0337,-0.000192703
5.0338,-0.000192716
5.0339,-0.000192729
5.034,-0.000192743
5.0341,-0.000192756
5.0342,-0.000192769
5.0343,-0.000192782
5.0344,-0.000192796
5.0345,-0.000192809
5.0346,-0.000192822
5.0347,-0.000192836
5.0348,-0.000192849
5.0349,-0.000192862
5.035,-0.000192876
5.0351,-0.000192889
5.0352,-0.000192902
5.0353,-0.000192915
5.0354,-0.000192929
5.0355,-0.000192942
5.0356,-0.000192955
5.0357,-0.000192969
5.0358,-0.000192982
5.0359,-0.000192996
5.036,-0.000193009
5.0361,-0.000193022
5.0362,-0.000193036
5.0363,-0.000193049
5.0364,-0.000193062
5.0365,-0.000193076
5.0366,-0.000193089
5.0367,-0.000193102
5.0368,-0.000193116
5.0369,-0.000193129
5.037,-0.000193143
5.0371,-0.000193156
5.0372,-0.000193169
5.0373,-0.000193183
5.0374,-0.000193196
5.0375,-0.000193209
5.0376,-0.000193223
5.0377,-0.000193236
5.0378,-0.00019325
5.0379,-0.000193263
5.038,-0.000193277
5.0381,-0.00019329
5.0382,-0.000193303
5.0383,-0.000193317
5.0384,-0.00019333
5.0385,-0.000193344
5.0386,-0.000193357
5.0387,-0.000193371
5.0388,-0.000193384
5.0389,-0.000193397
5.039,-0.000193411
5.0391,-0.000193424
5.0392,-0.000193438
5.0393,-0.000193451
5.0394,-0.000193465
5.0395,-0.000193478
5.0396,-0.000193492
5.0397,-0.000193505
5.0398,-0.000193519
5.0399,-0.000193532
5.04,-0.000193546
5.0401,-0.000193559
5.0402,-0.000193573
5.0403,-0.000193586
5.0404,-0.0001936
5.0405,-0.000193613
5.0406,-0.000193627
5.0407,-0.00019364
5.0408,-0.000193654
5.0409,-0.000193667
5.041,-0.000193681
5.0411,-0.000193694
5.0412,-0.000193708
5.0413,-0.000193721
5.0414,-0.000193735
5.0415,-0.000193748
5.0416,-0.000193762
5.0417,-0.000193775
5.0418,-0.000193789
5.0419,-0.000193803
5.042,-0.000193816
5.0421,-0.00019383
5.0422,-0.000193843
5.0423,-0.000193857
5.0424,-0.00019387
5.0425,-0.000193884
5.0426,-0.000193898
5.0427,-0.000193911
5.0428,-0.000193925
5.0429,-0.000193938
5.043,-0.000193952
5.0431,-0.000193965
5.0432,-0.000193979
5.0433,-0.000193993
5.0434,-0.000194006
5.0435,-0.00019402
5.0436,-0.000194034
5.0437,-0.000194047
5.0438,-0.000194061
5.0439,-0.000194074
5.044,-0.000194088
5.0441,-0.000194102
5.0442,-0.000194115
5.0443,-0.000194129
5.0444,-0.000194143
5.0445,-0.000194156
5.0446,-0.00019417
5.0447,-0.000194184
5.0448,-0.000194197
5.0449,-0.000194211
5.045,-0.000194225
5.0451,-0.000194238
5.0452,-0.000194252
5.0453,-0.000194266
5.0454,-0.000194279
5.0455,-0.000194293
5.0456,-0.000194307
5.0457,-0.00019432
5.0458,-0.000194334
5.0459,-0.000194348
5.046,-0.000194362
5.0461,-0.000194375
5.0462,-0.000194389
5.0463,-0.000194403
5.0464,-0.000194416
5.0465,-0.00019443
5.0466,-0.000194444
5.0467,-0.000194458
5.0468,-0.000194471
5.0469,-0.000194485
5.047,-0.000194499
5.0471,-0.000194513
5.0472,-0.000194526
5.0473,-0.00019454
5.0474,-0.000194554
5.0475,-0.000194568
5.0476,-0.000194581
5.0477,-0.000194595
5.0478,-0.000194609
5.0479,-0.000194623
5.048,-0.000194636
5.0481,-0.00019465
5.0482,-0.000194664
5.0483,-0.000194678
5.0484,-0.000194692
5.0485,-0.000194705
5.0486,-0.000194719
5.0487,-0.000194733
5.0488,-0.000194747
5.0489,-0.000194761
5.049,-0.000194774
5.0491,-0.000194788
5.0492,-0.000194802
5.0493,-0.000194816
5.0494,-0.00019483
5.0495,-0.000194844
5.0496,-0.000194857
5.0497,-0.000194871
5.0498,-0.000194885
5.0499,-0.000194899
5.05,-0.000194913
5.0501,-0.000194927
5.0502,-0.000194941
5.0503,-0.000194954
5.0504,-0.000194968
5.0505,-0.000194982
5.0506,-0.000194996
5.0507,-0.00019501
5.0508,-0.000195024
5.0509,-0.000195038
5.051,-0.000195052
5.0511,-0.000195066
5.0512,-0.00019508
5.0513,-0.000195093
5.0514,-0.000195107
5.0515,-0.000195121
5.0516,-0.000195135
5.0517,-0.000195149
5.0518,-0.000195163
5.0519,-0.000195177
5.052,-0.000195191
5.0521,-0.000195205
5.0522,-0.000195219
5.0523,-0.000195233
5.0524,-0.000195247
5.0525,-0.000195261
5.0526,-0.000195275
5.0527,-0.000195289
5.0528,-0.000195303
5.0529,-0.000195317
5.053,-0.00019533
5.0531,-0.000195344
5.0532,-0.000195358
5.0533,-0.000195372
5.0534,-0.000195386
5.0535,-0.0001954
5.0536,-0.000195414
5.0537,-0.000195428
5.0538,-0.000195442
5.0539,-0.000195456
5.054,-0.00019547
5.0541,-0.000195484
5.0542,-0.000195499
5.0543,-0.000195513
5.0544,-0.000195527
5.0545,-0.000195541
5.0546,-0.000195555
5.0547,-0.000195569
5.0548,-0.000195583
5.0549,-0.000195597
5.055,-0.000195611
5.0551,-0.000195625
5.0552,-0.000195639
5.0553,-0.000195653
5.0554,-0.000195667
5.0555,-0.000195681
5.0556,-0.000195695
5.0557,-0.000195709
5.0558,-0.000195723
5.0559,-0.000195738
5.056,-0.000195752
5.0561,-0.000195766
5.0562,-0.00019578
5.0563,-0.000195794
5.0564,-0.000195808
5.0565,-0.000195822
5.0566,-0.000195836
5.0567,-0.00019585
5.0568,-0.000195865
5.0569,-0.000195879
5.057,-0.000195893
5.0571,-0.000195907
5.0572,-0.000195921
5.0573,-0.000195935
5.0574,-0.000195949
5.0575,-0.000195964
5.0576,-0.000195978
5.0577,-0.000195992
5.0578,-0.000196006
5.0579,-0.00019602
5.058,-0.000196034
5.0581,-0.000196049
5.0582,-0.000196063
5.0583,-0.000196077
5.0584,-0.000196091
5.0585,-0.000196105
5.0586,-0.00019612
5.0587,-0.000196134
5.0588,-0.000196148
5.0589,-0.000196162
5.059,-0.000196176
5.0591,-0.000196191
5.0592,-0.000196205
5.0593,-0.000196219
5.0594,-0.000196233
5.0595,-0.000196248
5.0596,-0.000196262
5.0597,-0.000196276
5.0598,-0.00019629
5.0599,-0.000196305
5.06,-0.000196319
5.0601,-0.000196333
5.0602,-0.000196347
5.0603,-0.000196362
5.0604,-0.000196376
5.0605,-0.00019639
5.0606,-0.000196404
5.0607,-0.000196419
5.0608,-0.000196433
5.0609,-0.000196447
5.061,-0.000196462
5.0611,-0.000196476
5.0612,-0.00019649
5.0613,-0.000196505
5.0614,-0.000196519
5.0615,-0.000196533
5.0616,-0.000196548
5.0617,-0.000196562
5.0618,-0.000196576
5.0619,-0.000196591
5.062,-0.000196605
5.0621,-0.000196619
5.0622,-0.000196634
5.0623,-0.000196648
5.0624,-0.000196662
5.0625,-0.000196677
5.0626,-0.000196691
5.0627,-0.000196705
5.0628,-0.00019672
5.0629,-0.000196734
5.063,-0.000196749
5.0631,-0.000196763
5.0632,-0.000196777
5.0633,-0.000196792
5.0634,-0.000196806
5.0635,-0.000196821
5.0636,-0.000196835
5.0637,-0.000196849
5.0638,-0.000196864
5.0639,-0.000196878
5.064,-0.000196893
5.0641,-0.000196907
5.0642,-0.000196922
5.0643,-0.000196936
5.0644,-0.000196951
5.0645,-0.000196965
5.0646,-0.000196979
5.0647,-0.000196994
5.0648,-0.000197008
5.0649,-0.000197023
5.065,-0.000197037
5.0651,-0.000197052
5.0652,-0.000197066
5.0653,-0.000197081
5.0654,-0.000197095
5.0655,-0.00019711
5.0656,-0.000197124
5.0657,-0.000197139
5.0658,-0.000197153
5.0659,-0.000197168
5.066,-0.000197182
5.0661,-0.000197197
5.0662,-0.000197211
5.0663,-0.000197226
5.0664,-0.00019724
5.0665,-0.000197255
5.0666,-0.000197269
5.0667,-0.000197284
5.0668,-0.000197299
5.0669,-0.000197313
5.067,-0.000197328
5.0671,-0.000197342
5.0672,-0.000197357
5.0673,-0.000197371
5.0674,-0.000197386
5.0675,-0.000197401
5.0676,-0.000197415
5.0677,-0.00019743
5.0678,-0.000197444
5.0679,-0.000197459
5.068,-0.000197474
5.0681,-0.000197488
5.0682,-0.000197503
5.0683,-0.000197517
5.0684,-0.000197532
5.0685,-0.000197547
5.0686,-0.000197561
5.0687,-0.000197576
5.0688,-0.000197591
5.0689,-0.000197605
5.069,-0.00019762
5.0691,-0.000197634
5.0692,-0.000197649
5.0693,-0.000197664
5.0694,-0.000197678
5.0695,-0.000197693
5.0696,-0.000197708
5.0697,-0.000197723
5.0698,-0.000197737
5.0699,-0.000197752
5.07,-0.000197767
5.0701,-0.000197781
5.0702,-0.000197796
5.0703,-0.000197811
5.0704,-0.000197825
5.0705,-0.00019784
5.0706,-0.000197855
5.0707,-0.00019787
5.0708,-0.000197884
5.0709,-0.000197899
5.071,-0.000197914
5.0711,-0.000197929
5.0712,-0.000197943
5.0713,-0.000197958
5.0714,-0.000197973
5.0715,-0.000197988
5.0716,-0.000198002
5.0717,-0.000198017
5.0718,-0.000198032
5.0719,-0.000198047
5.072,-0.000198061
5.0721,-0.000198076
5.0722,-0.000198091
5.0723,-0.000198106
5.0724,-0.000198121
5.0725,-0.000198135
5.0726,-0.00019815
5.0727,-0.000198165
5.0728,-0.00019818
5.0729,-0.000198195
5.073,-0.00019821
5.0731,-0.000198224
5.0732,-0.000198239
5.0733,-0.000198254
5.0734,-0.000198269
5.0735,-0.000198284
5.0736,-0.000198299
5.0737,-0.000198314
5.0738,-0.000198328
5.0739,-0.000198343
5.074,-0.000198358
5.0741,-0.000198373
5.0742,-0.000198388
5.0743,-0.000198403
5.0744,-0.000198418
5.0745,-0.000198433
5.0746,-0.000198448
5.0747,-0.000198462
5.0748,-0.000198477
5.0749,-0.000198492
5.075,-0.000198507
5.0751,-0.000198522
5.0752,-0.000198537
5.0753,-0.000198552
5.0754,-0.000198567
5.0755,-0.000198582
5.0756,-0.000198597
5.0757,-0.000198612
5.0758,-0.000198627
5.0759,-0.000198642
5.076,-0.000198657
5.0761,-0.000198672
5.0762,-0.000198687
5.0763,-0.000198702
5.0764,-0.000198717
5.0765,-0.000198732
5.0766,-0.000198747
5.0767,-0.000198762
5.0768,-0.000198777
5.0769,-0.000198792
5.077,-0.000198807
5.0771,-0.000198822
5.0772,-0.000198837
5.0773,-0.000198852
5.0774,-0.000198867
5.0775,-0.000198882
5.0776,-0.000198897
5.0777,-0.000198912
5.0778,-0.000198927
5.0779,-0.000198942
5.078,-0.000198957
5.0781,-0.000198972
5.0782,-0.000198987
5.0783,-0.000199002
5.0784,-0.000199018
5.0785,-0.000199033
5.0786,-0.000199048
5.0787,-0.000199063
5.0788,-0.000199078
5.0789,-0.000199093
5.079,-0.000199108
5.0791,-0.000199123
5.0792,-0.000199138
5.0793,-0.000199154
5.0794,-0.000199169
5.0795,-0.000199184
5.0796,-0.000199199
5.0797,-0.000199214
5.0798,-0.000199229
5.0799,-0.000199244
5.08,-0.00019926
5.0801,-0.000199275
5.0802,-0.00019929
5.0803,-0.000199305
5.0804,-0.00019932
5.0805,-0.000199336
5.0806,-0.000199351
5.0807,-0.000199366
5.0808,-0.000199381
5.0809,-0.000199396
5.081,-0.000199412
5.0811,-0.000199427
5.0812,-0.000199442
5.0813,-0.000199457
5.0814,-0.000199472
5.0815,-0.000199488
5.0816,-0.000199503
5.0817,-0.000199518
5.0818,-0.000199533
5.0819,-0.000199549
5.082,-0.000199564
5.0821,-0.000199579
5.0822,-0.000199595
5.0823,-0.00019961
5.0824,-0.000199625
5.0825,-0.00019964
5.0826,-0.000199656
5.0827,-0.000199671
5.0828,-0.000199686
5.0829,-0.000199702
5.083,-0.000199717
5.0831,-0.000199732
5.0832,-0.000199748
5.0833,-0.000199763
5.0834,-0.000199778
5.0835,-0.000199794
5.0836,-0.000199809
5.0837,-0.000199824
5.0838,-0.00019984
5.0839,-0.000199855
5.084,-0.00019987
5.0841,-0.000199886
5.0842,-0.000199901
5.0843,-0.000199917
5.0844,-0.000199932
5.0845,-0.000199947
5.0846,-0.000199963
5.0847,-0.000199978
5.0848,-0.000199994
5.0849,-0.000200009
5.085,-0.000200024
5.0851,-0.00020004
5.0852,-0.000200055
5.0853,-0.000200071
5.0854,-0.000200086
5.0855,-0.000200102
5.0856,-0.000200117
5.0857,-0.000200132
5.0858,-0.000200148
5.0859,-0.000200163
5.086,-0.000200179
5.0861,-0.000200194
5.0862,-0.00020021
5.0863,-0.000200225
5.0864,-0.000200241
5.0865,-0.000200256
5.0866,-0.000200272
5.0867,-0.000200287
5.0868,-0.000200303
5.0869,-0.000200318
5.087,-0.000200334
5.0871,-0.000200349
5.0872,-0.000200365
5.0873,-0.00020038
5.0874,-0.000200396
5.0875,-0.000200411
5.0876,-0.000200427
5.0877,-0.000200443
5.0878,-0.000200458
5.0879,-0.000200474
5.088,-0.000200489
5.0881,-0.000200505
5.0882,-0.00020052
5.0883,-0.000200536
5.0884,-0.000200552
5.0885,-0.000200567
5.0886,-0.000200583
5.0887,-0.000200598
5.0888,-0.000200614
5.0889,-0.00020063
5.089,-0.000200645
5.0891,-0.000200661
5.0892,-0.000200677
5.0893,-0.000200692
5.0894,-0.000200708
5.0895,-0.000200724
5.0896,-0.000200739
5.0897,-0.000200755
5.0898,-0.000200771
5.0899,-0.000200786
5.09,-0.000200802
5.0901,-0.000200818
5.0902,-0.000200833
5.0903,-0.000200849
5.0904,-0.000200865
5.0905,-0.00020088
5.0906,-0.000200896
5.0907,-0.000200912
5.0908,-0.000200928
5.0909,-0.000200943
5.091,-0.000200959
5.0911,-0.000200975
5.0912,-0.00020099
5.0913,-0.000201006
5.0914,-0.000201022
5.0915,-0.000201038
5.0916,-0.000201054
5.0917,-0.000201069
5.0918,-0.000201085
5.0919,-0.000201101
5.092,-0.000201117
5.0921,-0.000201132
5.0922,-0.000201148
5.0923,-0.000201164
5.0924,-0.00020118
5.0925,-0.000201196
5.0926,-0.000201211
5.0927,-0.000201227
5.0928,-0.000201243
5.0929,-0.000201259
5.093,-0.000201275
5.0931,-0.000201291
5.0932,-0.000201307
5.0933,-0.000201322
5.0934,-0.000201338
5.0935,-0.000201354
5.0936,-0.00020137
5.0937,-0.000201386
5.0938,-0.000201402
5.0939,-0.000201418
5.094,-0.000201434
5.0941,-0.000201449
5.0942,-0.000201465
5.0943,-0.000201481
5.0944,-0.000201497
5.0945,-0.000201513
5.0946,-0.000201529
5.0947,-0.000201545
5.0948,-0.000201561
5.0949,-0.000201577
5.095,-0.000201593
5.0951,-0.000201609
5.0952,-0.000201625
5.0953,-0.000201641
5.0954,-0.000201657
5.0955,-0.000201673
5.0956,-0.000201689
5.0957,-0.000201705
5.0958,-0.000201721
5.0959,-0.000201737
5.096,-0.000201753
5.0961,-0.000201769
5.0962,-0.000201785
5.0963,-0.000201801
5.0964,-0.000201817
5.0965,-0.000201833
5.0966,-0.000201849
5.0967,-0.000201865
5.0968,-0.000201881
5.0969,-0.000201897
5.097,-0.000201913
5.0971,-0.000201929
5.0972,-0.000201945
5.0973,-0.000201961
5.0974,-0.000201977
5.0975,-0.000201994
5.0976,-0.00020201
5.0977,-0.000202026
5.0978,-0.000202042
5.0979,-0.000202058
5.098,-0.000202074
5.0981,-0.00020209
5.0982,-0.000202106
5.0983,-0.000202123
5.0984,-0.000202139
5.0985,-0.000202155
5.0986,-0.000202171
5.0987,-0.000202187
5.0988,-0.000202203
5.0989,-0.000202219
5.099,-0.000202236
5.0991,-0.000202252
5.0992,-0.000202268
5.0993,-0.000202284
5.0994,-0.0002023
5.0995,-0.000202317
5.0996,-0.000202333
5.0997,-0.000202349
5.0998,-0.000202365
5.0999,-0.000202382
5.1,-0.000202398
